omega,m_1,m_2,m_3,m_4,m_5,m_6,m_7,m_8
0.0,-370.9336864357074,-370.9336864357074,-114.88342033216246,-114.8834203321623,-370.9336864357074,-370.9336864357074,-114.88342033216246,-114.8834203321623
0.24612306153076538,-370.93335061224514,-370.9332773205537,-114.88334200880612,-114.88326746345534,-370.9335002010859,-370.93350020108585,-114.88336253421332,-114.88336253421325
0.49224612306153076,-370.9323431403997,-370.9320499727497,-114.88310703725375,-114.88280885492144,-370.9329414966605,-370.93294149666036,-114.8831891401911,-114.88318914019096
0.7383691845922962,-370.93066401579347,-370.93000438526633,-114.8827154130552,-114.88204449932238,-370.9320103207481,-370.9320103207479,-114.88290014957254,-114.88290014957236
0.9844922461230615,-370.9283132311307,-370.9271405463879,-114.88216712879282,-114.88097438459424,-370.9307066705433,-370.9307066705433,-114.8824955614851,-114.88249556148507
1.2306153076538269,-370.92529077619713,-370.92345843971253,-114.88146217408153,-114.87959849384569,-370.9290305421194,-370.92903054211934,-114.88197537470742,-114.8819753747073
1.4767383691845923,-370.92159663786026,-370.91895804415117,-114.8806005355677,-114.8779168053582,-370.9269819304267,-370.9269819304267,-114.8813395876692,-114.8813395876692
1.7228614307153576,-370.91723080006835,-370.9136393339275,-114.8795821969283,-114.87592929258368,-370.9245608292937,-370.92456082929357,-114.88058819845094,-114.88058819845078
1.968984492246123,-370.91219324385094,-370.9075022785772,-114.8784071388697,-114.87363592414216,-370.92176723142626,-370.92176723142626,-114.87972120478389,-114.87972120478389
2.2151075537768885,-370.9064839473184,-370.9005468429473,-114.87707533912632,-114.87103666382114,-370.9186011284082,-370.91860112840817,-114.87873860405071,-114.87873860405062
2.4612306153076537,-370.9001028856612,-370.89277298719514,-114.87558677245904,-114.8681314705724,-370.9150625107006,-370.9150625107005,-114.8776403932847,-114.87764039328461
2.707353676838419,-370.89305003115044,-370.88418066678804,-114.87394141065354,-114.86492029850832,-370.9111513676414,-370.9111513676414,-114.87642656916977,-114.8764265691697
2.9534767383691847,-370.88532535313635,-370.8747698325017,-114.87213922251775,-114.86140309690019,-370.90686768744655,-370.9068676874465,-114.87509712804086,-114.87509712804085
3.19959979989995,-370.8769288180488,-370.8645404304194,-114.8701801738805,-114.85757981017512,-370.90221145720807,-370.90221145720807,-114.87365206588369,-114.87365206588359
3.445722861430715,-370.86786038939647,-370.8534924019308,-114.86806422758836,-114.85345037790978,-370.89718266289543,-370.8971826628953,-114.87209137833432,-114.87209137833399
3.691845922961481,-370.8581200277662,-370.84162568373023,-114.86579134350319,-114.84901473482884,-370.891781289354,-370.891781289354,-114.87041506067942,-114.87041506067939
3.937968984492246,-370.84770769082263,-370.82894020781606,-114.86336147849944,-114.84427281080026,-370.8860073203061,-370.8860073203061,-114.86862310785669,-114.86862310785669
4.184092046023012,-370.8366233333077,-370.8154359014883,-114.8607745864609,-114.83922453082843,-370.8798607383495,-370.8798607383495,-114.86671551445377,-114.86671551445376
4.430215107553777,-370.82486690703973,-370.8011126873472,-114.85803061827744,-114.83386981505184,-370.87334152495845,-370.87334152495833,-114.86469227470891,-114.86469227470884
4.676338169084542,-370.8124383609132,-370.78597048329226,-114.85512952184148,-114.82820857873632,-370.8664496604821,-370.8664496604821,-114.86255338251027,-114.86255338251026
4.9224612306153075,-370.79933764089714,-370.7700092025189,-114.85207124204433,-114.82224073226911,-370.85918512414526,-370.8591851241451,-114.86029883139673,-114.86029883139672
5.168584292146073,-370.7855646900359,-370.7532287535181,-114.84885572077226,-114.81596618115329,-370.85154789404726,-370.85154789404726,-114.85792861455685,-114.85792861455685
5.414707353676838,-370.77111944844654,-370.735629040073,-114.84548289690211,-114.80938482600118,-370.84353794716253,-370.8435379471625,-114.85544272482935,-114.85544272482926
5.660830415207604,-370.7560018533196,-370.7172099612577,-114.84195270629748,-114.80249656252758,-370.83515525933933,-370.83515525933933,-114.85284115470276,-114.85284115470276
5.906953476738369,-370.740211838917,-370.69797141143437,-114.83826508180317,-114.79530128154298,-370.8263998052999,-370.8263998052999,-114.8501238963154,-114.8501238963154
6.153076538269135,-370.72374933657204,-370.67791328025123,-114.83441995324159,-114.78779886894573,-370.81727155864013,-370.81727155864013,-114.84729094145521,-114.84729094145521
6.3991995997999,-370.70661427468804,-370.6570354526396,-114.83041724740664,-114.77998920571477,-370.8077704918288,-370.8077704918287,-114.84434228155963,-114.8443422815596
6.645322661330665,-370.688806578737,-370.635337808812,-114.82625688805906,-114.77187216790105,-370.7978965762075,-370.7978965762074,-114.84127790771554,-114.8412779077155
6.89144572286143,-370.6703261712595,-370.6128202242587,-114.82193879592084,-114.76344762661901,-370.78764978198996,-370.7876497819899,-114.83809781065905,-114.83809781065901
7.137568784392196,-370.6511729718626,-370.5894825697455,-114.81746288866957,-114.75471544803914,-370.77703007826193,-370.7770300782618,-114.83480198077557,-114.83480198077535
7.383691845922962,-370.63134689721926,-370.56532471131055,-114.8128290809322,-114.74567549337657,-370.76603743298006,-370.76603743298,-114.83139040809873,-114.83139040809861
7.629814907453727,-370.6108478610674,-370.54034651026103,-114.80803728427935,-114.73632761888418,-370.75467181297233,-370.75467181297233,-114.82786308231188,-114.82786308231188
7.875937968984492,-370.58967577420833,-370.51454782317086,-114.80308740721885,-114.72667167584052,-370.7429331839369,-370.7429331839369,-114.82421999274676,-114.82421999274675
8.122061030515258,-370.56783054450506,-370.4879285018762,-114.79797935518882,-114.71670751054134,-370.73082151044156,-370.73082151044144,-114.82046112838344,-114.82046112838331
8.368184092046024,-370.54531207688245,-370.46048839347367,-114.79271303055131,-114.70643496428814,-370.7183367559236,-370.71833675592353,-114.81658647785025,-114.81658647785021
8.614307153576789,-370.5221202733244,-370.4322273403156,-114.78728833258491,-114.69585387337807,-370.70547888268914,-370.705478882689,-114.81259602942414,-114.812596029424
8.860430215107554,-370.4982550328732,-370.4031451800066,-114.78170515747777,-114.68496406909193,-370.6922478519121,-370.6922478519121,-114.80848977102937,-114.80848977102933
9.10655327663832,-370.4737162516281,-370.37324174540095,-114.77596339831979,-114.67376537768328,-370.6786436236344,-370.67864362363434,-114.80426769023879,-114.80426769023866
9.352676338169085,-370.44850382274376,-370.34251686459766,-114.77006294509518,-114.66225762036602,-370.6646661567648,-370.6646661567648,-114.79992977427197,-114.79992977427197
9.59879939969985,-370.42261763642904,-370.3109703609369,-114.7640036846746,-114.65044061330224,-370.6503154090782,-370.650315409078,-114.79547600999669,-114.79547600999658
9.844922461230615,-370.39605757994485,-370.2786020529964,-114.75778550080656,-114.63831416759092,-370.6355913372154,-370.6355913372154,-114.79090638392739,-114.79090638392726
10.09104552276138,-370.3688235376034,-370.2454117545869,-114.75140827410912,-114.6258780892528,-370.62049389668226,-370.62049389668226,-114.78622088222596,-114.78622088222596
10.337168584292145,-370.3409153907659,-370.2113992747482,-114.74487188206172,-114.61313217921835,-370.6050230418492,-370.6050230418492,-114.78141949070071,-114.78141949070071
10.58329164582291,-370.3123330178413,-370.1765644177448,-114.73817619899557,-114.60007623331396,-370.58917872595003,-370.58917872595003,-114.7765021948068,-114.7765021948068
10.829414707353676,-370.2830762942848,-370.14090698306137,-114.7313210960852,-114.58671004224773,-370.57296090108173,-370.57296090108173,-114.7714689796456,-114.77146897964559
11.075537768884443,-370.2531450925953,-370.1044267653981,-114.72430644133843,-114.57303339159532,-370.5563695182034,-370.5563695182033,-114.76631982996471,-114.7663198299646
11.321660830415208,-370.2225392823149,-370.0671235546667,-114.71713209958754,-114.55904606178456,-370.53940452713573,-370.53940452713573,-114.76105473015767,-114.76105473015755
11.567783891945973,-370.1912587300259,-370.0289971359848,-114.70979793247871,-114.54474782808099,-370.5220658765605,-370.5220658765604,-114.75567366426333,-114.7556736642633
11.813906953476739,-370.15930329934963,-369.9900472896717,-114.70230379846251,-114.5301384605719,-370.50435351401876,-370.50435351401865,-114.75017661596661,-114.75017661596661
12.060030015007504,-370.12667285094454,-369.9502737912431,-114.69464955278303,-114.51521772415055,-370.4862673859113,-370.4862673859112,-114.74456356859737,-114.74456356859716
12.30615307653827,-370.0933672425039,-369.9096764114062,-114.68683504746794,-114.49998537850024,-370.4678074374972,-370.4678074374972,-114.73883450512967,-114.73883450512967
12.552276138069034,-370.0593863287545,-369.86825491605447,-114.67886013131718,-114.48444117807672,-370.4489736128929,-370.4489736128929,-114.73298940818344,-114.73298940818339
12.7983991995998,-370.02472996145383,-369.82600906626226,-114.67072464989221,-114.46858487209258,-370.4297658550717,-370.42976585507165,-114.72702826002224,-114.72702826002218
13.044522261130565,-369.98939798938886,-369.7829386182795,-114.66242844550446,-114.45241620449787,-370.4101841058627,-370.41018410586264,-114.72095104255395,-114.72095104255392
13.29064532266133,-369.9533902583731,-369.7390433235261,-114.6539713572039,-114.4359349139652,-370.39022830594985,-370.39022830594985,-114.71475773733033,-114.71475773733033
13.536768384192095,-369.91670661124533,-369.69432292858664,-114.64535322076718,-114.41914073386745,-370.3698983948712,-370.36989839487114,-114.70844832554668,-114.70844832554661
13.78289144572286,-369.8793468878673,-369.64877717520415,-114.63657386868584,-114.40203339226316,-370.349194311018,-370.349194311018,-114.70202278804162,-114.70202278804162
14.029014507253626,-369.8413109251206,-369.6024058002747,-114.62763313015361,-114.38461261187587,-370.3281159916334,-370.3281159916334,-114.69548110529674,-114.69548110529674
14.275137568784393,-369.8025985569057,-369.5552085358413,-114.61853083105386,-114.3668781100736,-370.3066633728122,-370.3066633728121,-114.6888232574364,-114.6888232574363
14.521260630315158,-369.76320961413893,-369.5071851090874,-114.60926679394737,-114.34882959885212,-370.28483638949905,-370.28483638949893,-114.68204922422724,-114.68204922422704
14.767383691845923,-369.72314392475045,-369.4583352423319,-114.59984083805818,-114.33046678481071,-370.2626349754882,-370.26263497548814,-114.67515898507796,-114.6751589850779
15.013506753376689,-369.68240131368174,-369.40865865302163,-114.59025277926116,-114.3117893691352,-370.24005906342194,-370.24005906342177,-114.66815251903947,-114.6681525190393
15.259629814907454,-369.64098160288296,-369.35815505372534,-114.5805024300681,-114.29279704757545,-370.2171085847897,-370.2171085847897,-114.66102980480333,-114.66102980480318
15.505752876438219,-369.59888461131163,-369.3068241521279,-114.57058959961371,-114.27348951042299,-370.19378346992755,-370.19378346992744,-114.65379082070281,-114.6537908207028
15.751875937968984,-369.5561101549286,-369.25466565102255,-114.56051409364149,-114.25386644249168,-370.17008364801615,-370.17008364801615,-114.64643554471216,-114.64643554471216
15.99799899949975,-369.5126580466966,-369.2016792483051,-114.55027571448947,-114.23392752309265,-370.1460090470805,-370.1460090470805,-114.63896395444547,-114.63896395444544
16.244122061030517,-369.4685280965775,-369.1478646369665,-114.53987426107533,-114.21367242601411,-370.1215595939885,-370.12155959398837,-114.63137602715733,-114.63137602715729
16.49024512256128,-369.4237201115293,-369.0932215050865,-114.52930952888157,-114.19310081949641,-370.09673521444967,-370.09673521444967,-114.62367173974202,-114.62367173974202
16.736368184092047,-369.37823389550425,-369.03774953582604,-114.51858130994019,-114.17221236620925,-370.0715358330146,-370.0715358330146,-114.61585106873332,-114.61585106873324
16.98249124562281,-369.33206924944557,-368.9814484074203,-114.50768939281708,-114.15100672322859,-370.0459613730732,-370.0459613730731,-114.60791399030377,-114.60791399030366
17.228614307153578,-369.2852259712848,-368.9243177931715,-114.4966335625965,-114.12948354201063,-370.0200117568537,-370.02001175685365,-114.59986048026512,-114.59986048026501
17.47473736868434,-369.2377038559395,-368.86635736144143,-114.48541360086475,-114.107642468368,-369.9936869054216,-369.99368690542155,-114.59169051406695,-114.59169051406691
17.720860430215108,-369.18950269531,-368.80756677564403,-114.47402928569372,-114.08548314244486,-369.96698673867803,-369.96698673867803,-114.58340406679693,-114.5834040667969
17.96698349174587,-369.14062227827685,-368.74794569423784,-114.46248039162465,-114.0630051986895,-369.9399111753597,-369.9399111753597,-114.57500111318048,-114.57500111318039
18.21310655327664,-369.0910623906978,-368.68749377071794,-114.45076668965065,-114.04020826583036,-369.91246013303595,-369.91246013303584,-114.56648162757983,-114.56648162757978
18.459229614807402,-369.04082281540485,-368.6262106536086,-114.43888794719983,-114.0170919668479,-369.8846335281088,-369.8846335281087,-114.5578455839944,-114.55784558399438
18.70535267633817,-368.98990333220206,-368.56409598645496,-114.42684392811765,-113.99365591894859,-369.85643127581073,-369.85643127581073,-114.54909295605961,-114.54909295605961
18.951475737868936,-368.9383037178613,-368.5011494078152,-114.41463439264902,-113.96989973353577,-369.8278532902047,-369.8278532902047,-114.5402237170472,-114.54022371704711
19.1975987993997,-368.88602374612026,-368.4373705512524,-114.4022590974203,-113.94582301618394,-369.7988994841814,-369.79889948418133,-114.5312378398643,-114.53123783986413
19.443721860930467,-368.8330631876788,-368.3727590453258,-114.38971779542067,-113.92142536660843,-369.76956976945854,-369.7695697694584,-114.52213529705303,-114.52213529705283
19.68984492246123,-368.7794218101967,-368.3073145135832,-114.37701023598372,-113.89670637863702,-369.7398640565796,-369.7398640565796,-114.51291606079032,-114.51291606079032
19.935967983991997,-368.72509937828937,-368.24103657455174,-114.36413616476794,-113.87166564018068,-369.70978225491234,-369.70978225491234,-114.50358010288772,-114.50358010288772
20.18209104552276,-368.67009565352555,-368.17392484172973,-114.35109532373785,-113.84630273320397,-369.6793242726473,-369.6793242726472,-114.49412739479043,-114.49412739479014
20.428214107053527,-368.6144103944239,-368.1059789235777,-114.33788745114379,-113.82061723369395,-369.64849001679653,-369.6484900167965,-114.48455790757644,-114.48455790757643
20.67433716858429,-368.55804335644973,-368.0371984235097,-114.32451228150265,-113.79460871163006,-369.617279393192,-369.617279393192,-114.47487161195802,-114.47487161195802
20.920460230115058,-368.5009942920115,-367.96758293988415,-114.31096954557667,-113.76827673095173,-369.5856923064844,-369.5856923064844,-114.46506847827884,-114.46506847827872
21.16658329164582,-368.44326295045806,-367.8971320659947,-114.29725897035355,-113.74162084952762,-369.5537286601416,-369.55372866014136,-114.4551484765152,-114.45514847651515
21.41270635317659,-368.38484907807504,-367.82584539006183,-114.28338027902515,-113.71464061912248,-369.5213883564464,-369.5213883564464,-114.44511157627447,-114.44511157627447
21.658829414707352,-368.32575241808104,-367.7537224952225,-114.26933319096632,-113.68733558536509,-369.48867129649676,-369.4886712964967,-114.43495774679589,-114.43495774679586
21.90495247623812,-368.26597271062474,-367.6807629595211,-114.25511742171302,-113.65970528771346,-369.4555773802023,-369.4555773802023,-114.42468695694872,-114.42468695694865
22.151075537768886,-368.20550969278145,-367.60696635590034,-114.24073268294094,-113.63174925942258,-369.42210650628436,-369.42210650628436,-114.4142991752326,-114.41429917523257
22.39719859929965,-368.14436309854955,-367.5323322521912,-114.22617868244242,-113.60346702750847,-369.38825857227323,-369.3882585722732,-114.40379436977705,-114.4037943697769
22.643321660830416,-368.0825326588466,-367.4568602111033,-114.21145512410466,-113.57485811271427,-369.35403347450733,-369.35403347450733,-114.39317250834047,-114.39317250834046
22.88944472236118,-368.0200181015061,-367.38054979021456,-114.19656170788602,-113.54592202947441,-369.31943110813125,-369.31943110813114,-114.38243355831013,-114.38243355831003
23.135567783891947,-367.9568191512739,-367.30340054196245,-114.18149812979301,-113.51665828587811,-369.2844513670943,-369.2844513670942,-114.37157748670138,-114.3715774867013
23.38169084542271,-367.8929355298049,-367.2254120136325,-114.16626408185692,-113.48706638363313,-369.2490941441487,-369.24909414414867,-114.36060426015729,-114.36060426015717
23.627813906953477,-367.8283669556583,-367.1465837473488,-114.1508592521091,-113.45714581802915,-369.21335933084816,-369.2133593308481,-114.3495138449479,-114.34951384494786
23.87393696848424,-367.7631131442949,-367.0669152800637,-114.13528332455705,-113.42689607789882,-369.17724681754584,-369.17724681754584,-114.33830620697037,-114.33830620697037
24.120060030015008,-367.6971738080736,-366.9864061435473,-114.11953597915969,-113.3963166455799,-369.1407564933931,-369.1407564933929,-114.32698131174739,-114.32698131174736
24.36618309154577,-367.63054865624594,-366.90505586437644,-114.10361689180196,-113.36540699687846,-369.1038882463373,-369.1038882463373,-114.31553912442773,-114.31553912442725
24.61230615307654,-367.56323739495446,-366.8228639639246,-114.08752573426953,-113.3341666010254,-369.0666419631205,-369.06664196312045,-114.30397960978425,-114.3039796097842
24.858429214607302,-367.4952397272272,-366.7398299583512,-114.07126217422292,-113.30259492063995,-369.02901752927716,-369.02901752927704,-114.29230273221555,-114.29230273221539
25.10455227613807,-367.42655535297484,-366.65595335859,-114.05482587517108,-113.27069141168727,-368.991014829133,-368.99101482913295,-114.28050845574322,-114.2805084557431
25.350675337668836,-367.3571839689858,-366.5712336703387,-114.03821649644509,-113.2384555234378,-368.95263374580287,-368.95263374580287,-114.2685967440124,-114.2685967440124
25.5967983991996,-367.28712526892343,-366.48567039404753,-114.0214336931708,-113.20588669842594,-368.9138741611888,-368.9138741611887,-114.25656756029133,-114.25656756029117
25.842921460730366,-367.21637894332133,-366.39926302490807,-114.0044771162417,-113.1729843724059,-368.8747359559783,-368.8747359559783,-114.24442086746987,-114.24442086746987
26.08904452226113,-367.1449446795791,-366.31201105284174,-113.98734641229098,-113.13974797431152,-368.8352190096426,-368.8352190096426,-114.23215662806007,-114.23215662806007
26.335167583791897,-367.07282216195904,-366.2239139624886,-113.97004122366324,-113.1061769262094,-368.7953232004346,-368.7953232004346,-114.21977480419471,-114.21977480419471
26.58129064532266,-367.00001107158147,-366.1349712331958,-113.95256118838623,-113.0722706432562,-368.7550484053871,-368.7550484053871,-114.20727535762707,-114.20727535762707
26.827413706853427,-366.926511086421,-366.0451823390052,-113.93490594014183,-113.03802853365518,-368.7143945003106,-368.71439450031056,-114.19465824973035,-114.19465824973021
27.07353676838419,-366.85232188130175,-365.95454674864203,-113.91707510823586,-113.00344999860738,-368.67336135979167,-368.67336135979167,-114.1819234414968,-114.1819234414968
27.319659829914958,-366.7774431278941,-365.86306392550335,-113.89906831756939,-112.96853443226772,-368.63194885719105,-368.63194885719105,-114.16907089353751,-114.16907089353751
27.56578289144572,-366.70187449470956,-365.7707333276451,-113.88088518860765,-112.93328122169754,-368.59015686464136,-368.5901568646413,-114.15610056608162,-114.15610056608121
