omega,V
0.0,0
0.24612306153076538,-916.462338992008
0.49224612306153076,-3665.84385168834
0.7383691845922962,-8248.12802524994
0.9844922461230615,-14663.2873382783
1.2306153076538269,-22911.2832608157
1.4767383691845923,-32992.0662543449
1.7228614307153576,-44905.5757717892
1.968984492246123,-58651.7402575128
2.2151075537768885,-74230.4771473202
2.4612306153076537,-91641.6928684568
2.707353676838419,-110885.282839608
2.9534767383691847,-131961.131470902
3.19959979989995,-154869.112163904
3.445722861430715,-179609.087311622
3.691845922961481,-206180.908298505
3.937968984492246,-234584.415500442
4.184092046023012,-264819.438284763
4.430215107553777,-296885.795010237
4.676338169084542,-330783.293027075
4.9224612306153075,-366511.728676930
5.168584292146073,-404070.887292893
5.414707353676838,-443460.543199497
5.660830415207604,-484680.459712715
5.906953476738369,-527730.389139961
6.153076538269135,-572610.072780090
6.3991995997999,-619319.240923396
6.645322661330665,-667857.612851617
6.89144572286143,-718224.896837928
7.137568784392196,-770420.790146946
7.383691845922962,-824444.979034729
7.629814907453727,-880297.138748775
7.875937968984492,-937976.933528024
8.122061030515258,-997484.016602854
8.368184092046024,-1058818.03019509
8.614307153576789,-1121978.60551798
8.860430215107554,-1186965.36277624
9.10655327663832,-1253777.91116600
9.352676338169085,-1322415.84887486
9.59879939969985,-1392878.76308182
9.844922461230615,-1465166.22995737
10.09104552276138,-1539277.81466339
10.337168584292145,-1615213.07135324
10.58329164582291,-1692971.54317170
10.829414707353676,-1772552.76225499
11.075537768884443,-1853956.24973080
11.321660830415208,-1937181.51571821
11.567783891945973,-2022228.05932779
11.813906953476739,-2109095.36866151
12.060030015007504,-2197782.92081281
12.30615307653827,-2288290.18186657
12.552276138069034,-2380616.60689908
12.7983991995998,-2474761.63997810
13.044522261130565,-2570724.71416283
13.29064532266133,-2668505.25150389
13.536768384192095,-2768102.66304336
13.78289144572286,-2869516.34881475
14.029014507253626,-2972745.69784302
14.275137568784393,-3077790.08814456
14.521260630315158,-3184648.88672721
14.767383691845923,-3293321.44959025
15.013506753376689,-3403807.12172438
15.259629814907454,-3516105.23711178
15.505752876438219,-3630215.11872603
15.751875937968984,-3746136.07853218
15.99799899949975,-3863867.41748670
16.244122061030517,-3983408.42553751
16.49024512256128,-4104758.38162398
16.736368184092047,-4227916.55367691
16.98249124562281,-4352882.19861854
17.228614307153578,-4479654.56236255
17.47473736868434,-4608232.87981406
17.720860430215108,-4738616.37486964
17.96698349174587,-4870804.26041730
18.21310655327664,-5004795.73833647
18.459229614807402,-5140589.99949804
18.70535267633817,-5278186.22376435
18.951475737868936,-5417583.57998915
19.1975987993997,-5558781.22601765
19.443721860930467,-5701778.30868651
19.68984492246123,-5846573.96382381
19.935967983991997,-5993167.31624907
20.18209104552276,-6141557.47977328
20.428214107053527,-6291743.55719883
20.67433716858429,-6443724.64031959
20.920460230115058,-6597499.80992084
21.16658329164582,-6753068.13577932
21.41270635317659,-6910428.67666320
21.658829414707352,-7069580.48033209
21.90495247623812,-7230522.58353704
22.151075537768886,-7393254.01202056
22.39719859929965,-7557773.78051657
22.643321660830416,-7724080.89275046
22.88944472236118,-7892174.34143904
23.135567783891947,-8062053.10829057
23.38169084542271,-8233716.16400474
23.627813906953477,-8407162.46827270
23.87393696848424,-8582390.96977702
24.120060030015008,-8759400.60619172
24.36618309154577,-8938190.30418227
24.61230615307654,-9118758.97940556
24.858429214607302,-9301105.53650994
25.10455227613807,-9485228.86913519
25.350675337668836,-9671127.85991253
25.5967983991996,-9858801.38046463
25.842921460730366,-10048248.2914056
26.08904452226113,-10239467.4423409
26.335167583791897,-10432457.6718677
26.58129064532266,-10627217.8075743
26.827413706853427,-10823746.6660405
27.07353676838419,-11022043.0528378
27.319659829914958,-11222105.7625287
27.56578289144572,-11423933.5786677
27.81190595297649,-11627525.2738001
28.05802901450725,-11832879.6094632
28.30415207603802,-12039995.3361854
28.550275137568786,-12248871.1934868
28.79639819909955,-12459505.9098785
29.042521260630316,-12671898.2028637
29.28864432216108,-12886046.7789363
29.534767383691847,-13101950.3335823
29.78089044522261,-13319607.5512788
30.027013506753377,-13539017.1054943
30.27313656828414,-13760177.6586888
30.519259629814908,-13983087.8623140
30.76538269134567,-14207746.3568126
31.011505752876438,-14434151.7716190
31.2576288144072,-14662302.7251591
31.50375187593797,-14892197.8248500
31.749874937468736,-15123835.6671005
31.9959979989995,-15357214.8373106
32.242121060530266,-15592333.9098720
32.48824412206103,-15829191.4481676
32.73436718359179,-16067786.0045719
32.98049024512256,-16308116.1204507
33.22661330665333,-16550180.3261614
33.472736368184094,-16793977.1410528
33.718859429714854,-17039505.0734649
33.96498249124562,-17286762.6207296
34.21110555277639,-17535748.2691699
34.457228614307155,-17786460.4941002
34.70335167583792,-18038897.7598266
34.94947473736868,-18293058.5196465
35.19559779889945,-18548941.2158487
35.441720860430216,-18806544.2797135
35.68784392196098,-19065866.1315127
35.93396698349174,-19326905.1805094
36.18009004502251,-19589659.8249581
36.42621310655328,-19854128.4521051
36.672336168084044,-20120309.4381877
36.918459229614804,-20388201.1484349
37.16458229114557,-20657801.9370671
37.41070535267634,-20929110.1472960
37.656828414207105,-21202124.1113250
37.90295147573787,-21476842.1503487
38.14907453726863,-21753262.5745533
38.3951975987994,-22031383.6831163
38.641320660330166,-22311203.7642067
38.88744372186093,-22592721.0949851
39.13356678339169,-22875933.9416033
39.37968984492246,-23160840.5592046
39.62581290645323,-23447439.1919239
39.871935967983994,-23735728.0728873
40.118059029514754,-24025705.4242125
40.36418209104552,-24317369.4570086
40.61030515257629,-24610718.3713762
40.856428214107055,-24905750.3564072
41.10255127563782,-25202463.5901851
41.34867433716858,-25500856.2397847
41.59479739869935,-25800926.4612723
41.840920460230116,-26102672.3997056
42.08704352176088,-26406092.1891339
42.33316658329164,-26711183.9525978
42.57928964482241,-27017945.8021294
42.82541270635318,-27326375.8387521
43.071535767883944,-27636472.1524808
43.317658829414704,-27948232.8223221
43.56378189094547,-28261655.9162737
43.80990495247624,-28576739.4913249
44.056028014007005,-28893481.5934563
44.30215107553777,-29211880.2576403
44.54827413706853,-29531933.5078402
44.7943971985993,-29853639.3570112
45.040520260130066,-30176995.8070998
45.28664332166083,-30502000.8490438
45.53276638319159,-30828652.4627726
45.77888944472236,-31156948.6172071
46.02501250625313,-31486887.2702593
46.271135567783894,-31818466.3688331
46.517258629314654,-32151683.8488235
46.76338169084542,-32486537.6351171
47.00950475237619,-32823025.6415919
47.255627813906955,-33161145.7711173
47.50175087543772,-33500895.9155543
47.74787393696848,-33842273.9557550
47.99399699849925,-34185277.7615633
48.240120060030016,-34529905.1918144
48.48624312156078,-34876154.0943349
48.73236618309154,-35224022.3059430
48.97848924462231,-35573507.6524480
49.22461230615308,-35924607.9486511
49.470735367683844,-36277320.9983445
49.716858429214604,-36631644.5943122
49.96298149074537,-36987576.5183294
50.20910455227614,-37345114.5411629
50.455227613806905,-37704256.4225708
50.70135067533767,-38064999.9113027
50.94747373686843,-38427342.7450996
51.1935967983992,-38791282.6506942
51.439719859929966,-39156817.3438102
51.68584292146073,-39523944.5291631
51.93196598299149,-39892661.9004596
52.17808904452226,-40262967.1403981
52.42421210605303,-40634857.9206682
52.670335167583794,-41008331.9019510
52.91645822911455,-41383386.7339191
53.16258129064532,-41760020.0552366
53.40870435217609,-42138229.4935588
53.654827413706855,-42518012.6655327
53.90095047523762,-42899367.1767967
54.14707353676838,-43282290.6219804
54.39319659829915,-43666780.5847051
54.639319659829916,-44052834.6375835
54.88544272136068,-44440450.3422196
55.13156578289144,-44829625.2492090
55.37768884442221,-45220356.8981387
55.62381190595298,-45612642.8175871
55.86993496748374,-46006480.5251240
56.1160580290145,-46401867.5273108
56.36218109054527,-46798801.3197002
56.60830415207604,-47197279.3868364
56.854427213606805,-47597299.2022549
57.10055027513757,-47998858.2284830
57.34667333666833,-48401953.9170389
57.5927963981991,-48806583.7084328
57.838919459729865,-49212745.0321660
58.08504252126063,-49620435.3067313
58.33116558279139,-50029651.9396130
58.57728864432216,-50440392.3272868
58.823411705852926,-50852653.8552198
59.06953476738369,-51266433.8978707
59.31565782891445,-51681729.8186894
59.56178089044522,-52098538.9701175
59.80790395197599,-52516858.6935877
60.054027013506754,-52936686.3195246
60.30015007503752,-53358019.1673438
60.54627313656828,-53780854.5454527
60.79239619809905,-54205189.7512498
61.038519259629815,-54631022.0711253
61.28464232116058,-55058348.7804608
61.53076538269134,-55487167.1436292
61.77688844422211,-55917474.4139950
62.023011505752876,-56349267.8339140
62.26913456728364,-56782544.6347337
62.5152576288144,-57217302.0367926
62.76138069034517,-57653537.2494211
63.00750375187594,-58091247.4709407
63.253626813406704,-58530429.8886645
63.49974987493747,-58971081.6788972
63.74587293646823,-59413200.0069345
63.991995997999,-59856782.0270639
64.23811905952977,-60301824.8825644
64.48424212106053,-60748325.7057060
64.7303651825913,-61196281.6177506
64.97648824412207,-61645689.7289514
65.22261130565282,-62096547.1385528
65.46873436718359,-62548850.9347911
65.71485742871435,-63002598.1948936
65.96098049024512,-63457785.9850793
66.20710355177589,-63914411.3605585
66.45322661330665,-64372471.3655331
66.69934967483742,-64831963.0331964
66.94547273636819,-65292883.3857328
67.19159579789896,-65755229.4343188
67.43771885942971,-66218998.1791217
67.68384192096048,-66684186.6093006
67.92996498249124,-67150791.7030059
68.17608804402201,-67618810.4273796
68.42221110555278,-68088239.7385550
68.66833416708354,-68559076.5816568
68.91445722861431,-69031317.8908013
69.16058029014508,-69504960.5890960
69.40670335167584,-69980001.5886402
69.6528264132066,-70456437.7905243
69.89894947473736,-70934266.0848304
70.14507253626813,-71413483.3506317
70.3911955977989,-71894086.4559933
70.63731865932967,-72376072.2579713
70.88344172086043,-72859437.6026136
71.1295647823912,-73344179.3249592
71.37568784392197,-73830294.2490389
71.62181090545272,-74317779.1878747
71.86793396698349,-74806630.9434800
72.11405702851425,-75296846.3068599
72.36018009004502,-75788422.0580106
72.60630315157579,-76281354.9659201
72.85242621310655,-76775641.7885676
73.09854927463732,-77271279.2729238
73.34467233616809,-77768264.1549508
73.59079539769886,-78266593.1596022
73.83691845922961,-78766263.0008230
74.08304152076037,-79267270.3815498
74.32916458229114,-79769611.9937104
74.57528764382191,-80273284.5182241
74.82141070535268,-80778284.6250018
75.06753376688344,-81284608.9729457
75.31365682841421,-81792254.2099495
75.55977988994498,-82301216.9728982
75.80590295147574,-82811493.8876684
76.0520260130065,-83323081.5691280
76.29814907453726,-83835976.6211367
76.54427213606803,-84350175.6365451
76.7903951975988,-84865675.1971956
77.03651825912956,-85382471.8739220
77.28264132066033,-85900562.2265495
77.5287643821911,-86419942.8038947
77.77488744372187,-86940610.1437657
78.02101050525262,-87462560.7729619
78.26713356678339,-87985791.2072743
78.51325662831415,-88510297.9514855
78.75937968984492,-89036077.4993691
79.00550275137569,-89563126.3336904
79.25162581290645,-90091440.9262063
79.49774887443722,-90621017.7376647
79.74387193596799,-91151853.2178055
79.98999499749875,-91683943.8053594
80.23611805902951,-92217285.9280492
80.48224112056027,-92751876.0025886
80.72836418209104,-93287710.4346830
80.97448724362181,-93824785.6190294
81.22061030515258,-94363097.9393158
81.46673336668334,-94902643.7682219
81.71285642821411,-95443419.4674190
81.95897948974488,-95985421.3875696
82.20510255127564,-96528645.8683276
82.4512256128064,-97073089.2383385
82.69734867433716,-97618747.8152392
82.94347173586793,-98165617.9056581
83.1895947973987,-98713695.8052149
83.43571785892946,-99262977.7985207
83.68184092046023,-99813460.1591784
83.927963981991,-100365139.149782
84.17408704352177,-100918011.021917
84.42021010505252,-101472072.016160
84.66633316658329,-102027318.362080
84.91245622811405,-102583746.278237
85.15857928964482,-103141351.972181
85.40470235117559,-103700131.640456
85.65082541270635,-104260081.468596
85.89694847423712,-104821197.631127
86.14307153576789,-105383476.291565
86.38919459729865,-105946913.602419
86.63531765882941,-106511505.705189
86.88144072036017,-107077248.730366
87.12756378189094,-107644138.797433
87.37368684342171,-108212172.014865
87.61980990495248,-108781344.480127
87.86593296648324,-109351652.279676
88.11205602801401,-109923091.488961
88.35817908954478,-110495658.172421
88.60430215107554,-111069348.383489
88.8504252126063,-111644158.164587
89.09654827413706,-112220083.547130
89.34267133566783,-112797120.551523
89.5887943971986,-113375265.187164
89.83491745872936,-113954513.452441
90.08104052026013,-114534861.334734
90.3271635817909,-115116304.810415
90.57328664332167,-115698839.844847
90.81940970485242,-116282462.392384
91.06553276638319,-116867168.396372
91.31165582791395,-117452953.789149
91.55777888944472,-118039814.492043
91.80390195097549,-118627746.415374
92.05002501250625,-119216745.458454
92.29614807403702,-119806807.509587
92.54227113556779,-120397928.446066
92.78839419709855,-120990104.134178
93.03451725862931,-121583330.429199
93.28064032016007,-122177603.175400
93.52676338169084,-122772918.206039
93.77288644322161,-123369271.343370
94.01900950475238,-123966658.398634
94.26513256628314,-124565075.172067
94.51125562781391,-125164517.452894
94.75737868934468,-125764981.019334
95.00350175087544,-126366461.638594
95.2496248124062,-126968955.066876
95.49574787393696,-127572457.049371
95.74187093546773,-128176963.320262
95.9879939969985,-128782469.602724
96.23411705852926,-129388971.608924
96.48024012006003,-129996465.040018
96.7263631815908,-130604945.586156
96.97248624312157,-131214408.926478
97.21860930465232,-131824850.729116
97.46473236618309,-132436266.651194
97.71085542771385,-133048652.338826
97.95697848924462,-133662003.427118
98.20310155077539,-134276315.540168
98.44922461230615,-134891584.291066
98.69534767383692,-135507805.281891
98.94147073536769,-136124974.103715
99.18759379689845,-136743086.336603
99.43371685842921,-137362137.549608
99.67983991995997,-137982123.300778
99.92596298149074,-138603039.137149
100.17208604302151,-139224880.594751
100.41820910455228,-139847643.198606
100.66433216608304,-140471322.462723
100.91045522761381,-141095913.890108
101.15657828914458,-141721412.972756
101.40270135067534,-142347815.191651
101.6488244122061,-142975116.016773
101.89494747373686,-143603310.907091
102.14107053526763,-144232395.310565
102.3871935967984,-144862364.664147
102.63331665832916,-145493214.393782
102.87943971985993,-146124939.914403
103.1255627813907,-146757536.629938
103.37168584292147,-147390999.933304
103.61780890445222,-148025325.206411
103.86393196598299,-148660507.820160
104.11005502751375,-149296543.134442
104.35617808904452,-149933426.498141
104.60230115057529,-150571153.249133
104.84842421210605,-151209718.714284
105.09454727363682,-151849118.209452
105.34067033516759,-152489347.039487
105.58679339669835,-153130400.498229
105.8329164582291,-153772273.868510
106.07903951975987,-154414962.422155
106.32516258129064,-155058461.419978
106.57128564282141,-155702766.111787
106.81740870435218,-156347871.736379
107.06353176588294,-156993773.521543
107.30965482741371,-157640466.684061
107.55577788894448,-158287946.429706
107.80190095047524,-158936207.953240
108.048024012006,-159585246.438419
108.29414707353676,-160235057.057990
108.54027013506753,-160885634.973692
108.7863931965983,-161536975.336253
109.03251625812906,-162189073.285395
109.27863931965983,-162841923.949829
109.5247623811906,-163495522.447261
109.77088544272137,-164149863.884386
110.01700850425212,-164804943.356889
110.26313156578288,-165460755.949450
110.50925462731365,-166117296.735738
110.75537768884442,-166774560.778415
111.00150075037519,-167432543.129132
111.24762381190595,-168091238.828534
111.49374687343672,-168750642.906256
111.73986993496749,-169410750.380926
111.98599299649825,-170071556.260161
112.232116058029,-170733055.540571
112.47823911955977,-171395243.207758
112.72436218109054,-172058114.236313
112.97048524262131,-172721663.589822
113.21660830415207,-173385886.220859
113.46273136568284,-174050777.070993
113.70885442721361,-174716331.070780
113.95497748874438,-175382543.139771
114.20110055027514,-176049408.186507
114.4472236118059,-176716921.108521
114.69334667333666,-177385076.792337
114.93946973486743,-178053870.113471
115.1855927963982,-178723295.936430
115.43171585792896,-179393349.114712
115.67783891945973,-180064024.490807
115.9239619809905,-180735316.896196
116.17008504252126,-181407221.151353
116.41620810405202,-182079732.065741
116.66233116558278,-182752844.437817
116.90845422711355,-183426553.055027
117.15457728864432,-184100852.693811
117.40070035017509,-184775738.119597
117.64682341170585,-185451204.086807
117.89294647323662,-186127245.338855
118.13906953476739,-186803856.608145
118.38519259629815,-187481032.616072
118.6313156578289,-188158768.073024
118.87743871935967,-188837057.678379
119.12356178089044,-189515896.120508
119.36968484242121,-190195278.076771
119.61580790395197,-190875198.213523
119.86193096548274,-191555651.186107
120.10805402701351,-192236631.638859
120.35417708854428,-192918134.205107
120.60030015007504,-193600153.507169
120.8464232116058,-194282684.156356
121.09254627313656,-194965720.752969
121.33866933466733,-195649257.886301
121.5847923961981,-196333290.134636
121.83091545772886,-197017812.065251
122.07703851925963,-197702818.234414
122.3231615807904,-198388303.187382
122.56928464232116,-199074261.458406
122.81540770385192,-199760687.570728
123.06153076538268,-200447576.036581
123.30765382691345,-201134921.357189
123.55377688844422,-201822718.022769
123.79989994997499,-202510960.512528
124.04602301150575,-203199643.294665
124.29214607303652,-203888760.826371
124.53826913456729,-204578307.553826
124.78439219609805,-205268277.912205
125.0305152576288,-205958666.325672
125.27663831915957,-206649467.207383
125.52276138069034,-207340674.959486
125.76888444222111,-208032283.973119
126.01500750375187,-208724288.628414
126.26113056528264,-209416683.294492
126.50725362681341,-210109462.329465
126.75337668834418,-210802620.080440
126.99949974987494,-211496150.883513
127.2456228114057,-212190049.063770
127.49174587293646,-212884308.935291
127.73786893446723,-213578924.801147
127.983991995998,-214273890.953399
128.23011505752876,-214969201.673101
128.47623811905953,-215664851.230298
128.7223611805903,-216360833.884026
128.96848424212106,-217057143.882312
129.21460730365183,-217753775.462177
129.4607303651826,-218450722.849630
129.70685342671337,-219147980.259673
129.95297648824413,-219845541.896301
130.1990995497749,-220543401.952497
130.44522261130564,-221241554.610239
130.6913456728364,-221939994.040494
130.93746873436717,-222638714.403221
131.18359179589794,-223337709.847372
131.4297148574287,-224036974.510887
131.67583791895947,-224736502.520702
131.92196098049024,-225436287.992740
132.168084042021,-226136325.031919
132.41420710355177,-226836607.732145
132.66033016508254,-227537130.176320
132.9064532266133,-228237886.436332
133.15257628814408,-228938870.573065
133.39869934967484,-229640076.636392
133.6448224112056,-230341498.665178
133.89094547273638,-231043130.687280
134.13706853426714,-231744966.719545
134.3831915957979,-232447000.767814
134.62931465732865,-233149226.826917
134.87543771885942,-233851638.880676
135.12156078039018,-234554230.901905
135.36768384192095,-235256996.852410
