omega,m_1,m_2,m_3,m_4,m_5,m_6,m_7,m_8
0.0,-381.4328420865962,-381.4328420865962,-122.70366725565897,-122.7036672556589,-381.4328420865962,-381.4328420865962,-122.70366725565897,-122.7036672556589
0.24612306153076538,-381.43251311277385,-381.43244157881287,-122.70391183019602,-122.70331285992826,-381.43337536230973,-381.43337536230973,-122.70144436504867,-122.70144436504863
0.49224612306153076,-381.4315422257511,-381.4312100430508,-122.7038758465087,-122.70278574046863,-381.4335646121751,-381.4335646121751,-122.6991605700069,-122.69916057000677
0.7383691845922962,-381.4299324802417,-381.4291444129832,-122.70358958384944,-122.7020556070645,-381.43340983606,-381.4334098360599,-122.69681586738365,-122.69681586738362
0.9844922461230615,-381.42768364934466,-381.4262448959807,-122.70309149063442,-122.70108399218343,-381.4329110326283,-381.4329110326282,-122.69441025361907,-122.69441025361901
1.2306153076538269,-381.4247956860512,-381.4225115116055,-122.70242129332792,-122.69983114208863,-381.4320681993399,-381.4320681993398,-122.69194372474246,-122.69194372474242
1.4767383691845923,-381.42126856591557,-381.4179442489395,-122.7016107197707,-122.69826529351094,-381.4308813324506,-381.4308813324506,-122.68941627637291,-122.6894162763729
1.7228614307153576,-381.4171022682573,-381.4125430853807,-122.7006791225153,-122.69636705031003,-381.42935042701254,-381.42935042701254,-122.68682790371871,-122.68682790371868
1.968984492246123,-381.41229677185515,-381.40630799094856,-122.69963564381877,-122.6941272184795,-381.4274754768734,-381.4274754768733,-122.68417860157763,-122.68417860157749
2.2151075537768885,-381.40685205358693,-381.39923892964435,-122.69848354778527,-122.69154247400157,-381.42525647467625,-381.42525647467613,-122.68146836433627,-122.68146836433606
2.4612306153076537,-381.4007680879032,-381.3913358599742,-122.69722343395365,-122.6886121492548,-381.42269341186017,-381.4226934118601,-122.6786971859706,-122.67869718597056
2.707353676838419,-381.3940448465952,-381.38259873518103,-122.69585490913946,-122.68533656116936,-381.4197862786592,-381.4197862786591,-122.67586506004544,-122.67586506004534
2.9534767383691847,-381.3866822986806,-381.3730275033561,-122.69437730663788,-122.68171629201817,-381.4165350641025,-381.4165350641025,-122.67297197971436,-122.67297197971433
3.19959979989995,-381.37868041034363,-381.3626221074995,-122.69278995586083,-122.67775191977576,-381.41293975601434,-381.4129397560142,-122.67001793771935,-122.6700179377192
3.445722861430715,-381.3700391448988,-381.35138248555074,-122.69109226610831,-122.67344393434081,-381.4090003410133,-381.4090003410132,-122.66700292639106,-122.66700292639098
3.691845922961481,-381.3607584627716,-381.33930857040883,-122.68928374028108,-122.66879272381829,-381.404716804512,-381.4047168045119,-122.6639269376479,-122.6639269376478
3.937968984492246,-381.3508383214855,-381.326400289943,-122.6873639652393,-122.66379858415283,-381.40008913071745,-381.40008913071745,-122.66078996299647,-122.66078996299645
4.184092046023012,-381.3402786756518,-381.3126575669979,-122.68533259654471,-122.65846173438091,-381.39511730263007,-381.39511730263,-122.65759199353148,-122.65759199353137
4.430215107553777,-381.32907947696526,-381.2980803193979,-122.68318934376695,-122.65278233131599,-381.38980130204345,-381.3898013020434,-122.65433301993458,-122.65433301993448
4.676338169084542,-381.3172406741987,-381.28266845994864,-122.68093395813108,-122.64676048189348,-381.3841411095439,-381.3841411095439,-122.65101303247475,-122.65101303247471
4.9224612306153075,-381.30476221319987,-381.2664218964366,-122.67856622267672,-122.6403962530034,-381.37813670451044,-381.3781367045103,-122.6476320210084,-122.64763202100835
5.168584292146073,-381.29164403688895,-381.24934053162974,-122.67608594459706,-122.63368967914131,-381.37178806511355,-381.37178806511355,-122.64418997497856,-122.64418997497853
5.414707353676838,-381.2778860852564,-381.2314242632751,-122.67349294933145,-122.62664076830754,-381.36509516831563,-381.3650951683156,-122.64068688341449,-122.64068688341432
5.660830415207604,-381.2634882953606,-381.21267298409845,-122.67078707601296,-122.61924950654851,-381.35805798986956,-381.35805798986956,-122.63712273493122,-122.63712273493121
5.906953476738369,-381.2484506013268,-381.1930865818016,-122.66796817395482,-122.6115158614601,-381.3506765043191,-381.350676504319,-122.63349751773072,-122.63349751773065
6.153076538269135,-381.23277293434455,-381.1726649390601,-122.66503609992472,-122.60343978490316,-381.34295068499756,-381.3429506849975,-122.62981121959933,-122.62981121959922
6.3991995997999,-381.21645522266726,-381.1514079335211,-122.66199071601547,-122.59502121511919,-381.3348805040275,-381.3348805040275,-122.62606382790916,-122.62606382790914
6.645322661330665,-381.1994973916102,-381.12931543780076,-122.65883188797636,-122.58626007839078,-381.3264659323204,-381.3264659323204,-122.62225532961703,-122.622255329617
6.89144572286143,-381.1818993635488,-381.1063873194807,-122.65555948388759,-122.57715629035023,-381.3177069395755,-381.3177069395754,-122.61838571126422,-122.6183857112642
7.137568784392196,-381.1636610579174,-381.08262344110534,-122.65217337310862,-122.56770975702071,-381.30860349427945,-381.30860349427945,-122.61445495897576,-122.61445495897566
7.383691845922962,-381.1447823912082,-381.0580236601788,-122.6486734254329,-122.557920375648,-381.2991555637058,-381.29915556370577,-122.61046305846102,-122.61046305846094
7.629814907453727,-381.12526327696895,-381.03258782916106,-122.64505951040363,-122.54778803536938,-381.28936311391374,-381.28936311391374,-122.60640999501169,-122.60640999501159
7.875937968984492,-381.10510362580226,-381.0063157954646,-122.64133149676044,-122.5373126177544,-381.27922610974804,-381.2792261097479,-122.60229575350314,-122.6022957535031
8.122061030515258,-381.08430334536354,-380.97920740145094,-122.63748925198179,-122.52649399724508,-381.26874451483735,-381.26874451483735,-122.59812031839286,-122.59812031839286
8.368184092046024,-381.0628623403593,-380.95126248442614,-122.6335326419122,-122.5153320415145,-381.2579182915947,-381.25791829159465,-122.59388367372028,-122.59388367372028
8.614307153576789,-381.04078051254646,-380.9224808766375,-122.62946153045031,-122.50382661176266,-381.2467474012156,-381.24674740121543,-122.5895858031063,-122.58958580310612
8.860430215107554,-381.01805776072973,-380.89286240526934,-122.62527577928896,-122.49197756295837,-381.2352318036772,-381.2352318036771,-122.58522668975287,-122.58522668975276
9.10655327663832,-380.9946939807604,-380.8624068924381,-122.62097524769857,-122.47978474404137,-381.2233714577385,-381.22337145773844,-122.58080631644253,-122.58080631644252
9.352676338169085,-380.9706890655343,-380.8311141551886,-122.61655979234156,-122.46724799808766,-381.21116632093816,-381.21116632093816,-122.576324665538,-122.57632466553795
9.59879939969985,-380.9460429049904,-380.7989840054892,-122.6120292671158,-122.45436716244828,-381.19861634959443,-381.1986163495944,-122.57178171898131,-122.57178171898121
9.844922461230615,-380.920755386109,-380.7660162502276,-122.60738352302181,-122.44114206886479,-381.1857214988039,-381.18572149880384,-122.56717745829364,-122.56717745829356
10.09104552276138,-380.89482639290924,-380.73221069120507,-122.60262240804643,-122.42757254356476,-381.1724817224402,-381.1724817224401,-122.56251186457469,-122.56251186457456
10.337168584292145,-380.868255806448,-380.69756712513276,-122.59774576706396,-122.41365840734214,-381.1588969731536,-381.15889697315356,-122.55778491850192,-122.55778491850175
10.58329164582291,-380.8410435048174,-380.6620853436255,-122.59275344174824,-122.39939947562313,-381.1449672023698,-381.1449672023698,-122.55299660033012,-122.5529966003301
10.829414707353676,-380.81318936314347,-380.6257651331975,-122.58764527049807,-122.38479555852187,-381.1306923602884,-381.1306923602883,-122.54814688989137,-122.54814688989117
11.075537768884443,-380.7846932535835,-380.5886062752568,-122.58242108836893,-122.36984646088584,-381.11607239588244,-381.11607239588244,-122.543235766593,-122.54323576659297
11.321660830415208,-380.7555550453235,-380.55060854609917,-122.57708072701362,-122.35455198233336,-381.10110725689714,-381.1011072568971,-122.53826320941893,-122.53826320941893
11.567783891945973,-380.7257746045777,-380.51177171690335,-122.57162401463042,-122.33891191728414,-381.0857968898481,-381.08579688984804,-122.53322919692725,-122.53322919692718
11.813906953476739,-380.69535179458427,-380.4720955537251,-122.56605077591361,-122.32292605498365,-381.0701412400212,-381.07014124002114,-122.52813370725065,-122.52813370725056
12.060030015007504,-380.66428647560497,-380.43157981749135,-122.56036083201187,-122.30659417952327,-381.0541402514707,-381.05414025147064,-122.52297671809572,-122.52297671809555
12.30615307653827,-380.63257850492187,-380.39022426399396,-122.55455400048747,-122.28991606985484,-381.0377938670181,-381.0377938670181,-122.51775820674176,-122.51775820674175
12.552276138069034,-380.6002277368352,-380.3480286438839,-122.54863009528276,-122.27289149980122,-381.0211020282511,-381.0211020282511,-122.51247815004056,-122.51247815004045
12.7983991995998,-380.5672340226608,-380.304992702665,-122.54258892668416,-122.25552023806578,-381.0040646755222,-381.00406467552205,-122.50713652441523,-122.50713652441505
13.044522261130565,-380.5335972107281,-380.2611161806877,-122.53643030129402,-122.23780204823504,-380.9866817479473,-380.9866817479473,-122.50173330586018,-122.50173330586009
13.29064532266133,-380.4993171463775,-380.21639881314195,-122.5301540220001,-122.21973668878302,-380.9689531834044,-380.9689531834044,-122.49626846993988,-122.49626846993988
13.536768384192095,-380.4643936719576,-380.1708403300514,-122.5237598879496,-122.20132391306915,-380.95087891853245,-380.9508789185324,-122.49074199178857,-122.49074199178831
13.78289144572286,-380.42882662682274,-380.124440456266,-122.51724769452429,-122.18256346933735,-380.93245888872974,-380.93245888872974,-122.48515384610837,-122.4851538461083
14.029014507253626,-380.39261584733083,-380.07719891145547,-122.51061723331468,-122.16345510071166,-380.9136930281525,-380.91369302815247,-122.47950400717048,-122.47950400717042
14.275137568784393,-380.35576116684035,-380.02911541010224,-122.50386829209864,-122.14399854519041,-380.8945812697136,-380.8945812697136,-122.47379244881252,-122.47379244881249
14.521260630315158,-380.31826241570695,-379.98018966149385,-122.49700065481838,-122.12419353563834,-380.87512354508084,-380.8751235450808,-122.46801914443868,-122.46801914443866
14.767383691845923,-380.28011942128217,-379.9304213697162,-122.49001410155968,-122.1040397997793,-380.8553197846758,-380.85531978467566,-122.46218406701914,-122.46218406701912
15.013506753376689,-380.24133200790914,-379.87981023364586,-122.4829084085307,-122.08353706018525,-380.8351699176715,-380.8351699176715,-122.4562871890881,-122.45628718908804
15.259629814907454,-380.2018999969208,-379.8283559469426,-122.47568334804231,-122.0626850342654,-380.8146738719923,-380.81467387199217,-122.45032848274462,-122.45032848274458
15.505752876438219,-380.1618232066363,-379.7760581980415,-122.46833868848798,-122.04148343425469,-380.79383157431073,-380.79383157431073,-122.44430791964975,-122.44430791964969
15.751875937968984,-380.1211014523583,-379.7229166701451,-122.46087419432502,-122.01993196720007,-380.77264295004704,-380.772642950047,-122.4382254710279,-122.43822547102785
15.99799899949975,-380.07973454637033,-379.66893104121596,-122.4532896260553,-121.9980303349462,-380.7511079233666,-380.75110792336653,-122.432081107664,-122.43208110766396
16.244122061030517,-380.037722297933,-379.61410098396766,-122.4455847402066,-121.9757782341217,-380.7292264171793,-380.72922641717923,-122.42587479990391,-122.42587479990382
16.49024512256128,-379.99506451328114,-379.55842616585727,-122.4377592893138,-121.9531753561221,-380.70699835313667,-380.70699835313667,-122.41960651765278,-122.41960651765275
16.736368184092047,-379.9517609956213,-379.50190624907685,-122.42981302190154,-121.93022138709452,-380.6844236516313,-380.6844236516313,-122.41327623037454,-122.41327623037445
16.98249124562281,-379.9078115451273,-379.4445408905445,-122.42174568246439,-121.9069160079192,-380.6615022317941,-380.6615022317939,-122.40688390709052,-122.40688390709045
17.228614307153578,-379.86321595893804,-379.3863297418961,-122.41355701144997,-121.88325889419292,-380.638234011493,-380.638234011493,-122.40042951637923,-122.40042951637922
17.47473736868434,-379.8179740311539,-379.32727244947625,-122.40524674523995,-121.85924971620997,-380.6146189073312,-380.61461890733113,-122.39391302637462,-122.39391302637455
17.720860430215108,-379.7720855528329,-379.26736865432974,-122.3968146161321,-121.83488813894111,-380.59065683464513,-380.59065683464496,-122.38733440476534,-122.38733440476514
17.96698349174587,-379.7255503119884,-379.20661799219215,-122.38826035232255,-121.81017382201729,-380.56634770750236,-380.5663477075022,-122.38069361879425,-122.38069361879415
18.21310655327664,-379.67836809358386,-379.1450200934803,-122.37958367788622,-121.78510641970637,-380.54169143870024,-380.54169143870024,-122.37399063525646,-122.37399063525638
18.459229614807402,-379.6305386795314,-379.0825745832837,-122.37078431276008,-121.75968558089234,-380.51668793976364,-380.51668793976353,-122.36722542049901,-122.36722542049888
18.70535267633817,-379.58206184868646,-379.0192810813545,-122.36186197272333,-121.733910949055,-380.4913371209427,-380.4913371209427,-122.36039794041959,-122.36039794041953
18.951475737868936,-379.53293737684555,-378.95513920209777,-122.35281636937975,-121.70778216224751,-380.46563889121137,-380.4656388912113,-122.35350816046578,-122.35350816046572
19.1975987993997,-379.4831650367416,-378.8901485545622,-122.3436472101382,-121.68129885307182,-380.4395931582651,-380.43959315826504,-122.34655604563346,-122.3465560456334
19.443721860930467,-379.43274459804076,-378.8243087424296,-122.33435419819456,-121.65446064865809,-380.41319982851877,-380.41319982851866,-122.33954156046572,-122.33954156046558
19.68984492246123,-379.38167582733865,-378.75761936400505,-122.32493703251208,-121.62726717063926,-380.3864588071044,-380.3864588071044,-122.33246466905241,-122.33246466905229
19.935967983991997,-379.32995848815597,-378.69008001220715,-122.3153954078023,-121.59971803512681,-380.3593699978697,-380.3593699978697,-122.3253253350284,-122.32532533502837
20.18209104552276,-379.2775923409358,-378.62169027455684,-122.30572901450607,-121.57181285268626,-380.3319333033751,-380.331933303375,-122.31812352157257,-122.31812352157255
20.428214107053527,-379.2245771430383,-378.5524497331675,-122.29593753877337,-121.54355122831247,-380.3041486248921,-380.3041486248921,-122.31085919140688,-122.31085919140685
20.67433716858429,-379.1709126487378,-378.48235796473386,-122.28602066244419,-121.51493276140219,-380.2760158624008,-380.27601586240075,-122.30353230679493,-122.30353230679478
20.920460230115058,-379.11659860921816,-378.4114145405219,-122.2759780630276,-121.48595704572942,-380.24753491458773,-380.2475349145877,-122.29614282954087,-122.2961428295407
21.16658329164582,-379.06163477256905,-378.3396190263569,-122.26580941368219,-121.45662366941748,-380.2187056788436,-380.2187056788436,-122.28869072098789,-122.28869072098786
21.41270635317659,-379.0060208837817,-378.26697098261343,-122.2555143831957,-121.4269322149119,-380.189528051261,-380.189528051261,-122.28117594201785,-122.28117594201785
21.658829414707352,-378.9497566847444,-378.19346996420313,-122.24509263596379,-121.39688225895286,-380.16000192663205,-380.16000192663194,-122.27359845304926,-122.2735984530492
21.90495247623812,-378.89284191423934,-378.1191155205641,-122.23454383196936,-121.36647337254558,-380.1301271984455,-380.1301271984455,-122.26595821403596,-122.26595821403595
22.151075537768886,-378.8352763079368,-378.0439071956489,-122.22386762676143,-121.3357051209343,-380.09990375888543,-380.09990375888543,-122.25825518446648,-122.25825518446646
22.39719859929965,-378.777059598392,-377.9678445279132,-122.21306367143319,-121.30457706356923,-380.06933149882803,-380.069331498828,-122.25048932336234,-122.25048932336216
22.643321660830416,-378.7181915150406,-377.8909270503036,-122.20213161260095,-121.27308875407974,-380.03841030783894,-380.0384103078389,-122.2426605892763,-122.2426605892763
22.88944472236118,-378.65867178419364,-377.81315429024585,-122.19107109238156,-121.2412397402418,-380.0071400741714,-380.00714007417133,-122.2347689402924,-122.2347689402923
23.135567783891947,-378.5985001290334,-377.7345257696326,-122.17988174837,-121.20902956394916,-379.9755206847632,-379.9755206847632,-122.22681433402309,-122.22681433402308
23.38169084542271,-378.53767626960894,-377.65504100481144,-122.16856321361736,-121.17645776117982,-379.9435520252344,-379.9435520252344,-122.21879672760876,-122.21879672760872
23.627813906953477,-378.4761999228316,-377.57469950657196,-122.15711511660743,-121.1435238619659,-379.91123397988457,-379.91123397988457,-122.21071607771609,-122.21071607771603
23.87393696848424,-378.41407080247035,-377.4935007801336,-122.14553708123394,-121.11022739036055,-379.8785664316902,-379.87856643169016,-122.2025723405366,-122.2025723405366
24.120060030015008,-378.3512886191465,-377.4114443251328,-122.1338287267765,-121.07656786440405,-379.84554926230174,-379.8455492623017,-122.19436547178553,-122.19436547178542
24.36618309154577,-378.2878530803298,-377.3285296356095,-122.12198966787717,-121.04254479609236,-379.8121823520418,-379.81218235204165,-122.18609542670005,-122.18609542669981
24.61230615307654,-378.2237638903331,-377.2447561999953,-122.11001951451641,-121.008157691342,-379.77846557990114,-379.7784655799011,-122.1777621600377,-122.1777621600376
24.858429214607302,-378.15902075030766,-377.1601235010993,-122.0979178719884,-120.97340604995473,-379.74439882353676,-379.74439882353664,-122.1693656260758,-122.16936562607575
25.10455227613807,-378.09362335823835,-377.07463101609477,-122.08568434087647,-120.93828936558421,-379.7099819592687,-379.7099819592687,-122.16090577860899,-122.16090577860898
25.350675337668836,-378.02757140893834,-376.98827821650576,-122.07331851702774,-120.90280712570049,-379.6752148620777,-379.6752148620777,-122.15238257094799,-122.15238257094796
25.5967983991996,-377.96086459404466,-376.901064568194,-122.06081999152809,-120.8669588115511,-379.6400974056018,-379.6400974056018,-122.14379595591832,-122.14379595591829
25.842921460730366,-377.8935026020124,-376.8129895313444,-122.04818835067614,-120.83074389812852,-379.6046294621333,-379.60462946213323,-122.13514588585866,-122.1351458858586
26.08904452226113,-377.82548511811063,-376.72405256045084,-122.03542317595736,-120.79416185412936,-379.5688109026164,-379.56881090261635,-122.12643231261892,-122.12643231261885
26.335167583791897,-377.7568118244159,-376.6342531043027,-122.02252404401683,-120.75721214191869,-379.53264159664377,-379.5326415966437,-122.1176551875594,-122.11765518755936
26.58129064532266,-377.68748239980795,-376.54359060597,-122.00949052663402,-120.7198942174917,-379.4961214124537,-379.4961214124537,-122.10881446154848,-122.10881446154842
26.827413706853427,-377.6174965199643,-376.45206450278914,-121.99632219069403,-120.6822075304337,-379.45925021692705,-379.45925021692705,-122.09991008496137,-122.09991008496131
27.07353676838419,-377.5468538573545,-376.35967422634843,-121.98301859816087,-120.64415152388156,-379.42202787558404,-379.4220278755839,-122.09094200767845,-122.09094200767836
27.319659829914958,-377.47555408123543,-376.26641920247266,-121.96957930604967,-120.60572563448402,-379.38445425258107,-379.38445425258095,-122.08191017908341,-122.08191017908324
27.56578289144572,-377.40359685764554,-376.17229885120906,-121.95600386639822,-120.56692929235928,-379.3465292107077,-379.3465292107077,-122.07281454806177,-122.07281454806174
27.81190595297649,-377.33098184939854,-376.07731258681093,-121.94229182623805,-120.52776192105678,-379.3082526113836,-379.3082526113836,-122.06365506299932,-122.0636550629992
